000000
000000
000000
000000
000000
000000
000000
000000
000000
000000
000000
000000
000000
000000
000000
000000
000000
000000
000000
000000
000000
000000
000000
000000
000000
000000
000000
000000
000000
000000
000000
000000
000000
000000
000000
000000
000000
000000
000000
000000
000000
000000
000000
000000
000000
000000
000000
000000
000000
000000
000000
000000
000000
000000
000000
000000
000000
000000
000000
000000
000000
000000
000000
000000
000000
000000
000000
000000
000000
000000
000000
000000
000000
000000
000000
000000
000000
000000
000000
000000
000000
000000
000000
000000
000001
000001
000001
000001
000000
000001
000001
000000
000001
000001
000000
000000
000001
000000
000000
000001
000000
000001
000000
000000
000000
000000
000000
000000
000000
000000
000000
000000
000000
000000
000000
000000
000000
000000
000000
000000
000000
000000
000000
000000
000000
000000
000000
000000
000000
000000
000000
000000
000000
000000
000000
000000
000000
000000
000000
000000
000000
000000
000000
000000
000000
000000
000000
000000
000000
000000
000000
000000
000000
000000
000000
000000
000000
000000
000000
000000
000000
000000
000000
000001
000096
00008D
000082
00003E
0000BC
0000B9
000004
0000CC
000003
00003A
000081
0000B1
00004F
0000AD
000054
000065
00001C
000005
000000
000000
000000
000000
000000
000001
000001
000001
000000
000000
000000
000002
000000
000001
000001
000000
000000
000001
000002
000000
000002
000001
000001
000001
000002
000000
000002
000001
000001
000001
000000
000000
000000
000000
000000
000000
000000
000000
000000
000000
000000
000000
000000
000000
000000
000000
000000
000000
000000
000000
000000
000000
000000
000000
000000
000000
000000
000000
000000
000000
000000
000001
00009C
00007C
00007C
00003A
00000B
000019
000006
00000F
000003
0000A3
00007F
000077
000055
00001C
00008C
000099
00008D
000006
000000
000000
000000
000000
000000
00000A
000014
000002
000000
000000
000000
0000A1
0000A6
000054
000005
000000
000000
000017
000028
000000
00004A
000042
000003
00002B
000022
000002
00003B
000037
000051
00002D
000000
000000
000000
000000
000001
000000
000000
000000
000000
000000
000000
000000
000000
000000
000000
000000
000000
000000
000000
000000
000000
000000
000000
000000
000000
000000
000000
000000
000000
000000
000000
000001
000002
000002
000002
000002
000003
000003
000001
000001
000002
000002
000003
000001
000002
000001
000001
000002
000001
000002
000000
000000
000000
000000
000000
000002
000004
000001
000000
000000
000000
000002
000004
000003
000001
000000
000000
000002
000002
000001
000002
000003
000001
000002
000002
000002
000003
000002
000002
000001
000000
000000
000000
000001
000001
000001
000000
000000
000000
000000
000000
000000
000001
000001
000001
000001
000000
000000
000001
000000
000000
000000
000000
000000
000000
000000
000000
000000
000000
000000
000020
000002
000001
000001
000001
000001
000001
000001
000001
000001
000001
000001
000001
000001
000001
000001
000001
000001
000001
000001
000001
000000
000000
000000
000000
000001
000001
000001
000000
000000
000000
000001
000001
000001
000001
000000
000001
000001
000001
000000
000001
000001
000001
000001
000001
000001
000001
000001
000001
000000
000000
000000
000001
000029
0000CF
00000D
000000
000000
000000
000000
000000
000000
000045
000090
0000A5
000003
000000
000002
000017
000001
000000
000000
000000
000000
000000
000000
000000
000000
000000
000000
000040
000003
000001
000000
000000
000000
000001
000001
000000
000001
000000
000000
000000
000000
000000
000001
000001
000000
000000
000001
000000
000000
000000
000000
000000
000000
000000
000000
000000
000000
000000
000000
000000
000000
000000
000000
000000
000000
000000
000000
000000
000000
000000
000000
000000
000000
000000
000000
000000
000000
000000
000001
000001
00003A
000034
000006
000000
000000
000000
000000
000000
000000
00007F
00008C
000055
000006
000000
000025
000026
000001
000000
000000
000000
000000
000000
000000
000000
000000
000000
000000
000002
000001
000001
000000
000000
000000
000000
000000
000000
000000
000000
000000
000000
000000
000000
000000
000000
000000
000000
000000
000000
000000
000000
000000
000000
000000
000000
000000
000000
000000
000000
000000
000000
000000
000000
000000
000000
000000
000000
000000
000000
000000
000000
000000
000000
000000
000000
000000
000000
000000
000000
000000
000001
000001
000004
000002
000000
000001
000000
000000
000000
000000
000003
000002
000003
000003
000001
000001
000002
000001
000001
000001
000000
000001
000001
000001
000000
000000
000000
000000
000062
000008
00007C
000071
000001
000000
000000
000000
000000
000000
000000
000000
000000
000000
000000
000000
000000
000000
000000
000000
000000
000000
000000
000000
000000
000000
000000
000000
000000
000000
000000
000000
000000
000000
000001
000001
000001
000002
000002
000001
000001
000001
000001
000002
000000
000000
000000
000000
000000
000000
000000
000001
000001
0000DC
000002
00006D
000007
000001
000001
000000
000000
000000
000001
000001
000001
0000B6
0000E9
0000BC
00000F
0000A9
00001D
000001
00000D
000006
00000A
000073
000001
000000
000000
000000
000007
000002
000043
000042
000001
000000
000000
000000
000000
000000
000000
000000
000000
000000
000000
000000
000000
000000
000001
000000
000000
000000
000000
000000
000000
000001
000000
000000
000000
000000
000000
000000
000000
000001
00000B
00002B
000032
00002A
000032
000009
00003A
000003
000036
000017
000001
000000
000000
000000
000000
000000
000000
000001
0000B0
00000A
000003
0000CD
000007
000001
000001
000000
000000
000000
000000
000001
000001
0000C4
000033
0000BF
00000E
0000B1
000003
000001
000014
000029
000026
00006C
000001
000000
000000
000000
000001
000001
000001
000001
000000
000000
000010
000001
000000
000000
000001
000001
000000
000000
000000
000000
000000
000000
000002
000001
000000
000000
000000
000001
000001
000001
000001
000000
000000
000000
000000
000000
000001
000001
000001
000001
000002
000001
000001
000001
000002
000002
000002
000001
000001
000000
000000
000000
000000
000000
000000
000001
0000D5
000042
0000D1
0000A9
000005
000001
000000
000000
000000
000000
000000
000001
000001
0000FD
000007
000001
000002
000002
000002
000001
000004
000002
000003
000003
000001
000000
000000
000000
000000
000001
000001
000001
000000
000000
00009A
000002
000000
000000
000001
00004A
000001
000000
000001
000001
000001
000001
000022
000001
000000
000000
000000
000001
000055
000001
000001
000000
000000
000000
000000
000000
000001
000075
000005
000001
000001
000001
000001
000001
000001
000009
000000
000001
000000
000000
000000
000000
000001
000000
000001
000001
000097
0000E1
000027
0000B0
000005
000001
000000
000000
000000
000000
000000
000001
000001
000001
000002
000001
000001
000001
000001
000001
000001
000001
000001
000001
000000
000000
000000
000000
000001
000001
000001
000000
000001
000001
000092
000003
000000
000001
000001
00009B
000001
000001
000001
000001
000001
00002F
00002B
000001
000001
000002
000002
000002
000066
000001
000001
000001
000003
000002
000003
000003
000002
00009B
000009
000001
000001
000001
000001
000001
00001E
00000F
000000
000000
000000
000000
000000
000001
000001
0000A6
000004
000001
0000DF
0000DC
000002
0000B9
000005
000001
000000
000000
000000
000000
000000
000000
000001
000000
000000
000001
000000
000001
000000
000001
000000
000000
000001
000000
000000
000000
000000
000000
00000F
000012
00000F
000038
000009
00000D
0000AF
000004
000001
000000
0000B4
0000B3
0000BE
000093
000006
000005
000003
0000A4
00000D
000007
000004
000003
000004
0000B6
0000D7
0000DD
000073
000002
000003
000002
000003
000002
000002
0000B3
000002
000023
000006
0000A9
0000DF
0000E8
0000B7
00000D
000001
000002
000002
000002
000001
000001
000001
0000CB
000004
000001
000002
000003
000001
000001
000002
000001
000000
000000
000000
000000
000000
000000
000000
000000
000000
000000
000000
000000
000000
000000
000000
000000
000000
000000
000000
000000
000000
000000
000001
000001
000002
000002
000001
000002
000035
000002
000002
000001
000004
000007
000001
000001
000001
000001
000001
000002
000002
000001
000001
000001
000001
000002
000003
000002
000002
000001
000001
000001
000001
000001
000001
000002
000001
000001
000001
000001
000001
000001
000086
000003
000004
000003
000001
000002
000001
000003
000004
0000A8
000004
000003
000001
0000D8
0000A6
00003E
00000E
000000
000000
000000
000002
000043
000039
000001
000000
000000
000000
000000
000000
000000
000000
000000
000000
000000
000000
000000
000000
000000
000000
000000
000001
000002
000001
000001
000001
000001
00000F
000002
000001
000001
000002
000002
000001
000001
000000
000001
000001
000001
000001
000001
000001
000000
000001
000001
000001
000001
000001
000001
000000
000000
000000
000001
000001
000001
000000
000000
000001
000000
000001
000001
000002
000001
000002
000001
000001
000001
000001
000001
000001
000002
000001
000001
000000
0000DF
0000ED
000036
000002
000000
000000
000000
0000C1
0000A4
0000ED
000015
000000
000000
000000
000000
000000
000000
000000
000000
000000
000000
000000
000000
000000
000000
000000
000000
000000
000001
000000
000000
000000
000000
000012
000001
000000
000000
000001
000001
000000
000000
000000
000000
000001
000000
000000
000001
000000
000000
000000
000000
000000
000000
000000
000000
000000
000000
000000
000000
000001
000000
000000
000000
000000
000000
000000
000000
000001
000001
000001
000000
000000
000000
000000
000000
000000
000001
000001
000001
000000
000002
000002
000002
000000
000000
000000
000000
000001
000002
000002
000002
000000
000000
000000
000000
000000
000000
000000
000000
000000
000000
000000
000000
000000
000000
000000
000000
000000
000000
000000
000000
000000
000000
000002
000001
000000
000000
000000
000000
000000
000000
000000
000000
000000
000000
000000
000000
000000
000000
000000
000000
000000
000000
000000
000000
000000
000000
000000
000000
000000
000000
000000
000000
000000
000000
000000
000000
000000
000000
000000
000000
000000
000000
000000
000000
000000
000000
000000
000000
000000
000001
000001
000000
000000
000000
000000
000000
000000
000001
000001
000001
000000
000000
000000
000000
000000
000000
000000
000000
000000
000000
000000
000000
000000
000000
000000
000000
000000
000000
000000
000000
000000
000000
000000
000000
000000
000000
000000
000000
000000
000000
000000
000000
000000
000000
000000
000000
000000
000000
000000
000000
000000
000000
000000
000000
000000
000000
000000
000000
000000
000000
000000
000000
000000
000000
000000
000000
000000
000000
000000
000000
000000
000000
000000
000000
000000
000000
000000
000000
000000
000000
000000
000000
000000
000000
000000
000000
000000
000000
000000
000000
000000
000000
000000
000000
000000
000000
000000
000000
000000
000000
000000
000000
000000
000000
000000
000000
000000
000000
000000
000000
000000
000000
000000
000000
000000
000000
000000
000000
000000
000000
000000
000000
000000
000000
000000
000000
000000
000000
000000
000000
000000
000000
000000
000000
000000
000000
000000
000000
000000
000000
000000
000000
000000
000000
000000
000000
000000
000000
000000
000000
000000
000000
000000
000000
000000
000000
000000
000000
000000
000000
000000
000000
000000
000000
000000
000000
000000
000000
000000
000000
000000
000000
000000
000000
000000
000000
000000
000000
000000
000000
000000
000000
000000
000000
000000
000000
000000
000000
000000
000000
000000
000000
000000
000000
000003
000012
000002
000000
000000
000000
000000
000000
000000
000000
000000
000000
000000
000000
000000
000000
000000
000000
000000
000000
000000
000000
000000
000000
000000
000000
000000
000000
000000
000000
000000
000000
000000
000000
000000
000000
000000
000000
000000
000000
000000
000000
000000
000000
000000
000000
000000
000000
000000
000000
000000
000000
000000
000000
000000
000000
000000
000000
000000
000000
000000
000000
000000
000000
000000
000000
000000
000000
000000
000000
000000
000000
000000
000000
000000
000000
000000
000000
000000
000001
000013
00002C
000001
000000
000000
000000
000000
000000
000000
000000
000000
000000
000000
000000
000000
000000
000000
000000
000000
000000
000000
000000
000000
000000
000000
000000
000000
000000
000000
000000
000000
000000
000000
000000
000000
000000
000000
000000
000000
000000
000000
000000
000000
000000
000000
000001
000000
000000
000000
000000
000000
000000
000000
000000
000000
000000
000000
000000
000000
000000
000000
000000
000000
000000
000000
000000
000000
000000
000000
000000
000000
000000
000003
000004
000004
000002
000001
000000
000000
000000
000001
000001
000001
000000
000000
000000
000000
000000
000000
000000
000000
000000
000000
000000
000000
000000
000000
000000
000000
000000
000000
000000
000000
000000
000000
000000
000000
000000
000000
000000
000000
000000
000000
000000
000000
000000
000000
000000
000000
000000
000000
000000
000000
000000
000001
000002
000001
000004
000003
000001
000000
000000
000000
000000
000000
000000
000000
000000
000000
000000
000000
000000
000000
000000
000000
000000
000000
000000
000000
000000
000000
000001
0000CA
000076
0000C4
000031
000001
000000
000000
000000
000000
000000
000000
000000
000000
000000
000000
000000
000000
000000
000000
000000
000000
000000
000000
000000
000000
000000
000000
000000
000000
000000
000000
000000
000000
000000
000000
000000
000000
000000
000000
000000
000000
000000
000000
000000
000000
000000
000000
000000
000000
000000
000000
000000
000080
000080
000064
0000E9
0000EE
00000F
000000
000000
000000
000000
000000
000000
000000
000000
000000
000000
000000
000000
000000
000000
000000
000000
000000
000000
000000
000000
000000
000000
000003
000001
000002
000002
000000
000000
000000
000000
000000
000000
000000
000000
000000
000000
000000
000000
000000
000000
000000
000000
000000
000000
000000
000000
000000
000000
000000
000000
000000
000000
000000
000000
000000
000000
000000
000000
000000
000000
000000
000000
000000
000000
000000
000000
000000
000000
000000
000000
000000
000000
000000
000000
00008C
000061
0000FA
0000F7
000031
000002
000000
000000
000000
000000
000000
000000
000000
000000
000000
000000
000000
000000
000000
000000
000000
000000
000000
000000
000000
000000
000000
000000
000001
000001
000001
000001
000000
000000
000000
000000
000000
000000
000000
000000
000000
000000
000000
000000
000000
000000
000000
000000
000000
000000
000000
000000
000000
000000
000000
000000
000000
000000
000000
000000
000000
000000
000000
000000
000000
000000
000000
000000
000000
000000
000000
000000
000000
000000
000000
000000
000000
000000
000000
000000
000004
000002
000002
000001
000002
000001
000000
000000
000000
000000
000000
000000
000000
000000
000000
000000
000000
000000
000000
000000
000000
000000
000000
000000
000000
000000
000000
000000
000000
000001
000001
000001
000000
000000
000001
000000
000000
000000
000000
000000
000000
000000
000000
000000
000000
000000
000000
000000
000000
000000
000000
000000
000000
000000
000000
000000
000000
000000
000000
000000
000000
000000
000000
000000
000000
000000
000000
000000
000000
000000
000000
000000
000000
000000
000000
000000
000000
000000
000000
000001
000008
000034
0000EC
0000E4
000002
000000
000000
000000
000000
000000
000000
000000
000000
000000
000000
000000
000000
000000
000000
000000
000000
000000
000000
000000
000000
000000
000000
000000
000000
000001
00001F
000001
000000
000000
000007
000001
000000
000000
000000
000000
000000
000000
000000
000000
000000
000000
000000
000000
000000
000000
000000
000000
000000
000000
000000
000000
000000
000000
000000
000000
000000
000000
000000
000000
000000
000000
000000
000000
000000
000000
000000
000000
000000
000000
000000
000000
000000
000000
000000
000001
0000D9
000015
0000EB
0000E8
000001
000000
000000
000000
000000
000000
000000
000000
000000
000000
000000
000000
000000
000000
000000
000000
000000
000000
000000
000000
000000
000000
000000
000000
000000
000003
000043
000001
000000
000000
00001F
000004
000000
000000
000000
000000
000000
000000
000000
000000
000000
000000
000000
000000
000000
000000
000000
000000
000000
000000
000000
000000
000000
000000
000000
000000
000000
000000
000000
000000
000000
000000
000000
000000
000000
000000
000000
000000
000000
000000
000001
000001
000000
000000
000001
000001
00003E
000026
0000C1
0000EB
000001
000000
000000
000000
000000
000000
000000
000000
000000
000000
000000
000000
000000
000000
000000
000000
000000
000000
000000
000000
000000
000000
000000
000001
000001
000068
000053
000001
000000
000000
000023
000001
000000
000000
000000
000000
000000
000001
000000
000000
000001
000001
000000
000000
000000
000000
000001
000000
000000
000000
000000
000000
000000
000000
000000
000000
000000
000000
000000
000000
000000
000000
000000
000000
000000
000000
000000
000000
000000
000025
000009
000001
000000
000000
000001
000002
00000C
000021
0000BE
0000EC
000002
000000
000000
000000
000000
000000
000000
000000
000000
000000
000000
000000
000000
000000
000000
000000
000000
000000
000000
000000
000000
000000
000000
000000
000001
0000A6
000074
000001
000000
000000
000024
000002
000002
000001
000001
000001
000001
000089
000001
000001
000001
00001C
000001
000000
000000
000020
00000C
000001
000000
000000
000001
000001
000001
000061
00000F
000001
000000
000001
000067
000001
000000
000000
000001
000000
000000
000000
000000
000000
00001B
00008F
00000E
000001
000000
000001
00002B
000001
0000DF
00000B
0000B0
000023
000001
000000
000000
000000
000000
000000
000000
000000
000000
000000
000000
000000
000000
000000
000000
000000
000000
000000
000000
000000
000000
000000
000000
000000
000001
000043
000093
000001
000012
000000
000020
000001
000023
00001F
000002
000001
000002
0000B4
000035
000000
000001
0000C3
000001
000001
000001
0000BE
00000E
000001
000000
00002A
000009
000001
000001
000077
000015
000001
000001
000002
0000B1
000001
000000
000001
000053
000001
000000
000000
000000
000001
0000B4
00001B
00001D
000001
000000
00005A
000045
000001
000002
000002
000002
000002
000000
000000
000000
000000
000000
000000
000000
000000
000000
000000
000000
000000
000000
000000
000000
000000
000000
000000
000000
000000
000000
000000
000000
000000
000047
00000D
0000A6
000002
000029
000001
000027
000001
0000AB
0000E0
000015
000001
00009D
000003
0000A2
000002
000002
000060
00002F
000025
000001
000039
0000A2
000005
000001
00006A
00000D
000001
000001
00001C
000034
000002
000007
00009D
0000A5
000002
000001
0000BD
0000AF
00007B
000001
000025
00004F
000003
000007
000002
00002F
000001
000001
000072
000060
000001
000000
000000
000000
000000
000000
000000
000000
000000
000000
000000
000000
000000
000000
000000
000000
000000
000000
000000
000000
000000
000000
000000
000000
000000
000000
000000
000000
000000
000002
000002
0000AC
000002
00000D
000001
0000BC
000005
00003A
000002
000032
000013
000064
000002
000061
000016
00008F
000002
000004
000085
000004
000013
000003
000008
000001
00001B
00008E
000004
000003
000008
000003
000006
00004C
00003B
000060
000004
000001
00002B
00007F
0000CA
000001
000099
000096
000063
000005
000001
000003
000006
000001
00000C
00008F
000001
000000
000000
000000
000000
000000
000000
000000
000000
000000
000000
000000
000000
000000
000000
000000
000000
000000
000000
000000
000000
000000
000000
000000
000000
000000
000000
000000
000000
000000
000000
00007F
000006
000006
000001
000062
00000D
000012
000001
0000B0
00001E
00002C
000001
000001
00008C
000011
000001
000001
000003
000006
000009
000001
000010
000001
000007
000002
000007
0000C1
000002
000002
000041
000004
000001
000002
000005
00000D
000005
000001
00009B
000002
00005C
000059
000089
000001
000000
000001
00001B
00009C
000003
0000A1
00000A
000001
000000
000000
000000
000000
000000
000000
000000
000000
000000
000000
000000
000000
000000
000000
000000
000000
000000
000000
000000
000000
000000
000000
000000
000000
000000
000000
000000
000000
000000
000071
00008E
000002
000001
000002
0000D1
000001
000001
000003
000069
000014
000001
000001
000001
000001
000001
000001
000002
00008E
000003
000001
00007F
0000B7
000002
000001
000066
000001
000002
000001
0000BE
000002
000001
000002
000009
00001C
000001
000001
000058
000003
000027
000002
000001
000001
000000
000001
00007D
00002F
000002
000004
000001
000000
000000
000000
000000
000000
000000
000000
000000
000000
000000
000000
000000
000000
000000
000000
000000
000000
000000
000000
000000
000000
000000
000000
000000
000000
000000
000000
000000
000000
000001
00000C
000063
000002
000000
000001
000003
000001
000000
000001
000001
000002
000000
000000
000000
000000
000000
000000
000001
000003
000001
000001
000002
000002
000001
000001
00002B
000001
000001
000001
00004D
000002
000000
000001
000010
00000B
000001
000000
000003
000006
00000F
000000
000000
000000
000000
000001
0000A9
00000A
000001
000000
000001
000000
000000
000000
000000
000000
000000
000000
000000
000000
000000
000000
000000
000000
000000
000000
000000
000000
000000
000000
000000
000000
000000
000000
000000
000000
000000
000000
000000
000000
000000
000002
000026
000001
000000
000000
000001
000001
000001
000001
000001
000001
000001
000000
000000
000000
000000
000000
000000
000001
000001
000001
000001
000001
000001
000001
000002
000000
000000
000001
000002
000001
000000
000001
000016
000006
000001
000000
000001
000009
000006
000000
000000
000000
000000
000001
000002
000001
000001
000000
000000
000000
000000
000000
000000
000000
000000
000000
000000
000000
000000
000000
000000
000000
000000
000000
000000
000000
000000
000000
000000
000000
000000
000000
000000
000000
000000
000000
000000
000000
000000
000001
000002
000001
000000
000001
000003
000028
00002D
00004F
000001
000000
000000
000000
000000
000000
000000
000000
000000
000000
000000
000000
000000
000000
000000
000000
000000
000000
000000
000000
000000
000000
000000
000001
00008D
000004
000001
000000
000001
0000A5
000003
000000
000000
000000
000000
000000
000000
000000
000000
000000
000000
000000
000000
000000
000000
000000
000000
000000
000000
000000
000000
000000
000000
000000
000000
000000
000000
000000
000000
000000
000000
000000
000000
000000
000000
000000
000000
000000
000000
000000
000000
000001
000001
000000
000000
000001
000002
000002
000001
000002
000001
000000
000000
000000
000000
000000
000000
000000
000000
000000
000000
000000
000000
000000
000000
000000
000000
000000
000000
000000
000000
000000
000000
000001
000011
000002
000001
000000
000000
000008
000001
000000
000000
000000
000000
000000
000000
000000
000000
000000
000000
000001
000000
000001
000000
000000
000000
000000
000000
000000
000000
000000
000000
000000
000000
000000
000000
000000
000000
000000
000000
000000
000000
000000
000000
000000
000000
000000
000000
000000
000000
000000
000000
000000
000000
000000
000000
000000
000001
000000
000000
000000
000000
000000
000000
000000
000000
000000
000000
000000
000000
000000
000000
000000
000000
000000
000000
000000
000000
000000
000000
000000
000000
000000
000001
000000
000000
000000
000000
000000
000000
000000
000000
000000
000000
000000
000000
000000
000000
000000
000000
000090
000031
00002E
0000CE
000002
000001
000000
000000
000000
000000
000000
000000
000000
000000
000000
000000
000000
000000
000000
000000
000000
000000
000000
000000
000000
000000
000000
000000
000001
000000
000000
000001
000001
000001
000000
000000
000000
000000
000000
000000
000000
000000
000000
000000
000000
000000
000000
000000
000000
000000
000000
000000
000000
000000
000000
000000
000000
000000
000000
000000
000000
000000
000001
00004B
000001
000001
000000
000000
000000
000000
000000
000000
000000
000000
000000
000000
000000
000000
000000
000001
000082
0000CB
000057
0000BA
00009B
000004
000001
000000
000000
000000
000000
000000
000000
000000
000000
000000
000000
000000
000000
000000
000000
000000
000000
000000
000000
000000
000000
000001
000003
000001
000001
000002
000001
000001
000001
000000
000000
000000
000000
000000
000000
000000
000000
000000
000000
000000
000000
000000
000000
000000
000000
000000
000000
000000
000000
000000
000000
000000
000000
000000
000000
000001
000001
00003B
00000E
000002
000001
000000
000000
000000
000000
000000
000000
000000
000000
000000
000000
000000
000001
000001
000001
0000AE
000003
000003
0000ED
000003
000001
000000
000000
000000
000000
000000
000000
000000
000000
000000
000000
000000
000000
000000
000000
000000
000000
000000
000000
000000
000000
000001
000091
00002F
000019
000054
00002D
000001
000000
000000
000001
000001
000000
000000
000000
000001
000001
000000
000000
000000
000000
000000
000000
000000
000000
000001
000000
000000
000001
000001
000000
000000
000001
000001
000001
000001
000002
000013
00000D
000005
000001
000001
000001
000001
00000E
000001
000001
000000
000000
000000
000000
000000
000001
000091
0000E6
00000E
000021
00002E
000002
000002
000000
000000
000000
000000
000000
000000
000000
000000
000000
000000
000000
000000
000000
000000
000000
000000
000000
000000
000000
000000
000000
000000
00005A
0000DF
0000E9
00004B
000027
000001
000000
000001
00002D
000001
000001
000001
000002
0000BD
000002
000002
000001
000001
000002
000002
000002
000002
000002
000001
000001
000001
000002
000002
000002
000001
000001
000002
000001
000002
000002
00000A
000002
000008
000003
000001
000003
000001
000044
000006
000002
000001
000001
000001
000001
000001
000002
000092
00007C
00000D
0000DF
000002
000001
000001
000000
000000
000000
000000
000000
000000
000000
000000
000000
000000
000000
000000
000000
000000
000000
000000
000000
000000
000000
000000
000000
000001
000001
00009E
000003
000002
000002
000001
000000
000001
00001B
000001
000000
000001
000004
000007
00009C
000002
000000
000000
000000
000000
000001
000001
000001
000000
000001
000002
0000C4
000013
000001
000000
000000
000000
000000
000000
000003
000006
000002
000018
000001
000000
000000
000001
000014
00008F
000003
000001
000000
000000
000000
000001
000006
00000C
0000E1
00000B
0000D8
00002C
000001
000000
000000
000000
000000
000000
000000
000000
000000
000000
000000
000000
000000
000000
000000
000000
000000
000000
000000
000000
000000
000000
000000
000000
000001
00001C
000004
000001
000001
000000
000023
000001
00000F
000001
000000
000000
00001B
000005
000021
000006
000001
000000
000001
00001B
000094
000002
000000
000000
000001
000091
000002
000068
000001
000001
000000
000000
000000
000000
000015
000004
000001
00005A
000002
000001
000000
000001
00000F
000003
000009
000001
000000
000000
000000
000001
00002A
000006
0000DC
000003
000034
000046
000001
000000
000000
000000
000000
000000
000000
000000
000000
000000
000000
000000
000000
000000
000000
000000
000000
000000
000000
000000
000000
000000
000000
000000
000001
000001
00000C
000001
000000
000000
00003B
000001
000015
000001
000000
000000
00003F
000003
000003
00000A
000001
000000
000001
000089
000004
000035
000001
000001
000001
0000A8
000002
000096
000002
000001
000000
000000
000000
000000
000026
000004
000001
00000B
000007
000001
000000
000002
000009
000001
000019
000001
000000
000000
000000
000001
000092
0000A0
000013
000002
0000DA
000038
000001
000000
000000
000000
000000
000000
000000
000000
000000
000000
000000
000000
000000
000000
000000
000000
000000
000000
000000
000000
000000
000000
000000
000000
000000
000001
000088
000002
000001
000001
000044
000001
00000B
000001
000000
000000
000092
000002
000001
000016
000000
000000
000001
0000A7
000001
0000A1
000003
000001
000001
0000A3
000001
00001B
000005
000001
000000
000000
000000
000000
00008D
000002
000001
000001
000034
000001
000001
000005
000005
000001
000033
000001
000000
000000
000000
000000
0000BF
000002
000001
000001
000002
000002
000001
000000
000000
000000
000000
000000
000000
000000
000000
000000
000000
000000
000000
000000
000000
000000
000000
000000
000000
000000
000000
000000
000000
000000
000000
000001
000002
000019
000001
000001
000041
000002
000009
000001
000001
000000
0000A7
000002
000001
00004C
000001
000001
000001
000052
000001
000004
0000E8
000004
000001
00004C
000001
000001
00001D
000002
000000
000000
000000
000000
000094
000002
000000
000000
000097
000004
000001
00004D
000003
000001
0000B2
000001
000000
000000
000000
000000
000088
000001
000001
000001
000001
000001
000001
000000
000000
000000
000000
000000
000000
000000
000000
000000
000000
000000
000000
000000
000000
000000
000000
000000
000000
000000
000000
000000
000000
000000
000000
000000
000002
00009F
000002
000001
000001
000007
000004
000001
000001
000001
000059
000001
000001
000005
00001F
000001
000001
00002B
000001
000001
000001
00004D
000002
00001E
000000
000001
000003
00000B
000000
000000
000000
000000
0000AD
000002
000000
000001
000001
000016
000001
000093
000003
000001
000002
00005C
000002
000001
000000
000000
000048
000001
000000
000000
000000
000000
000000
000000
000000
000000
000000
000000
000000
000000
000000
000000
000000
000000
000000
000000
000000
000000
000000
000000
000000
000000
000000
000000
000000
000000
000000
000001
000001
000004
0000BA
000006
000001
00004C
000004
000001
00001B
000002
00002B
000001
000001
000001
000095
000003
000001
00001A
000000
000001
000001
000003
00008F
000007
000000
000001
000001
0000A5
000001
000000
000000
000000
000056
000001
000000
000001
000001
000008
000068
00008E
000001
000001
000001
000004
00000B
000001
000001
000001
00001A
000001
000000
000000
000000
000000
000000
000000
000000
000000
000000
000000
000000
000000
000000
000000
000000
000000
000000
000000
000000
000000
000000
000000
000000
000000
000000
000000
000000
000000
000000
000000
000001
000001
000001
00000B
0000C7
000093
000001
000001
00001F
0000E9
000027
000021
00002E
00003B
000052
0000EA
000043
000039
00002A
000040
000054
00004E
00005D
00005A
00004D
000040
000036
000042
00006B
000058
000079
000057
000053
000029
00003F
000055
000054
00004D
00004E
000041
00001F
00001A
00001E
00001E
000029
0000E9
000038
0000C7
00000B
000001
000000
000000
000000
000000
000000
000000
000000
000000
000000
000000
000000
000000
000000
000000
000000
000000
000000
000000
000000
000000
000000
000000
000000
000000
000000
000000
000000
000000
000000
000000
000000
000001
000002
000001
000001
000001
000001
000001
000001
000002
000002
000001
000001
000001
000002
000001
000003
000001
000001
000002
000002
000002
000002
000001
000001
000001
000001
000002
000002
00009A
0000CA
000005
000002
000001
000001
000001
000002
000001
000001
000001
000001
000001
000002
000001
000002
000001
000002
000002
000001
000002
000001
000000
000000
000000
000000
000000
000000
000000
000000
000000
000000
000000
000000
000000
000000
000000
000000
000000
000000
000000
000000
000000
000000
000000
000000
000000
000000
000000
000000
000000
000000
000000
000001
000001
000001
000001
000001
000002
000001
000001
000001
000001
000000
000000
000001
000001
000001
000001
000000
000000
000000
000000
000000
000000
000000
000000
000000
000000
000001
000001
000002
000001
000001
000000
000000
000000
000000
000000
000000
000001
000000
000000
000000
000000
000000
000001
000001
000001
000001
000001
000000
000000
000000
000000
000000
000000
000000
000000
000000
000000
000000
000000
000000
000000
000000
000000
000000
000000
000000
000000
000000
000000
000000
000000
000000
000000
000000
000000
000000
000000
000000
000000
000000
000000
000001
000036
000053
000059
000001
00003A
000030
00004A
000001
000000
000000
000000
000000
000000
000000
000000
000000
000000
000000
000000
000000
000000
000000
000000
000001
000001
000001
000001
000001
000000
000000
000000
000000
000000
000000
000000
000000
000000
000000
000000
000000
000000
000000
000000
000000
000000
000000
000000
000000
000000
000000
000000
000000
000000
000000
000000
000000
000000
000000
000000
000000
000000
000000
000000
000000
000000
000000
000000
000000
000000
000000
000000
000000
000000
000000
000000
000000
000000
000000
000000
000000
000002
000017
000003
000007
000002
000004
000004
000001
000000
000000
000000
000000
000000
000000
000000
000000
000000
000000
000000
000000
000000
000000
000000
000000
000000
000001
000000
000000
000000
000000
000000
000000
000000
000000
000000
000000
000000
000000
000000
000000
000000
000000
000000
000000
000000
000000
000000
000000
000000
000000
000000
000000
000000
000000
000000
000000
000000
000000
000000
000000
000000
000000
000000
000000
000000
000000
000000
000000
000000
000000
000000
000000
000000
000000
000000
000000
000000
000000
000000
000000
000001
000002
000001
000002
000001
000001
000001
000001
000000
000000
000000
000000
000000
000000
000000
000000
000000
000000
000000
000000
000000
000000
000000
000000
000000
000000
000000
000000
000000
000000
000000
000000
000000
000000
000000
000000
000000
000000
000000
000000
000000
000000
000000
000000
000000
000000
000000
000000
000000
000000
000000
000000
000000
000000
000000
000000
000000
000000
000000
000000
000000
000000
000000
000000
000000
000000
000000
000000
000000
000000
000000
000000
000000
000000
000000
000000
000000
000000
000000
000000
000000
000000
000000
000000
000000
000000
000000
000000
000000
000000
000000
000000
000000
000000
000000
000000
000000
000000
000000
000000
000000
000000
000000
000000
000000
000000
000000
000000
000000
000000
000000
000000
000000
000000
000000
000000
000000
000000
000000
000000
000000
000000
000000
000000
000000
000000
000000
000000
000000
000000
000000
000000
000000
000000
000000
000000
000000
000000
000000
000000
000000
000000
000000
000000
000000
000000
000000
000000
000000
000000
000000
000000
000000
000000
000000
000000
000000
000000
000000
000000
000000
000000
000000
000000
000000
000000
000000
000000
000000
000000
000000
000000
000000
000000
000000
000000
000000
000000
000000
000000
000000
000000
000000
000000
000000
000000
000000
000000
000000
000000
000000
000000
000000
000000
000000
000000
000000
000000
000000
000000
000000
000000
000000
000000
000000
000000
000000
000000
000000
000000
000000
000000
000000
000000
000000
000000
000000
000000
000000
000000
000000
000000
000000
000000
000000
000000
000000
000000
000000
000000
000000